# This file stores unnormalized transfer function for Tinker 2005 mass function. 
# the 1st column is k (in h Mpc^{-1}) and the 2nd one is T(k).
1.109488584916107357e-05 1.550604400000000000e+07
1.225776213686913252e-05 1.550604100000000000e+07
1.354252071905648336e-05 1.550603700000000000e+07
1.496193817729363218e-05 1.550603100000000000e+07
1.653012623137328774e-05 1.550602500000000000e+07
1.826267907745204866e-05 1.550601800000000000e+07
2.017682527366559952e-05 1.550600900000000000e+07
2.229159508715383708e-05 1.550599700000000000e+07
2.462801967340055853e-05 1.550598300000000000e+07
2.720932934607844800e-05 1.550596700000000000e+07
3.006118822668213397e-05 1.550594600000000000e+07
3.321195981698110700e-05 1.550592100000000000e+07
3.669296711450442672e-05 1.550589100000000000e+07
4.053882366861216724e-05 1.550585300000000000e+07
4.478777191252447665e-05 1.550580900000000000e+07
4.948206333210691810e-05 1.550575300000000000e+07
5.466836955747567117e-05 1.550568600000000000e+07
6.039826621417887509e-05 1.550560300000000000e+07
6.672871677437797189e-05 1.550550300000000000e+07
7.372268009930849075e-05 1.550538100000000000e+07
8.144969615386798978e-05 1.550523100000000000e+07
8.998658449854701757e-05 1.550504900000000000e+07
9.941824828274548054e-05 1.550482600000000000e+07
1.098384600481949747e-04 1.550455500000000000e+07
1.213508367072790861e-04 1.550422400000000000e+07
1.340698509011417627e-04 1.550382100000000000e+07
1.481219514971598983e-04 1.550332900000000000e+07
1.636468950891867280e-04 1.550273000000000000e+07
1.807990338420495391e-04 1.550200200000000000e+07
1.997489162022247910e-04 1.550111500000000000e+07
2.206849749200046062e-04 1.550003600000000000e+07
2.438153751427307725e-04 1.549872500000000000e+07
2.693701244425028563e-04 1.549713300000000000e+07
2.976033138111233711e-04 1.549520300000000000e+07
3.287956642452627420e-04 1.549286400000000000e+07
3.632573352660983801e-04 1.549003700000000000e+07
4.013310244772583246e-04 1.548662300000000000e+07
4.433952854014933109e-04 1.548251100000000000e+07
4.898683400824666023e-04 1.547756900000000000e+07
5.412123864516615868e-04 1.547164800000000000e+07
5.979378474876284599e-04 1.546457300000000000e+07
6.606088718399405479e-04 1.545614900000000000e+07
7.298485143110156059e-04 1.544615700000000000e+07
8.063452551141381264e-04 1.543434500000000000e+07
8.908598101697862148e-04 1.542043600000000000e+07
9.842325234785676003e-04 1.540411700000000000e+07
1.087391749024391174e-03 1.538503400000000000e+07
1.201363280415534973e-03 1.536278100000000000e+07
1.327280420809984207e-03 1.533690900000000000e+07
1.466395216993987560e-03 1.530690400000000000e+07
1.620090799406170845e-03 1.527219900000000000e+07
1.789895584806799889e-03 1.523216600000000000e+07
1.977497944608330727e-03 1.518611700000000000e+07
2.184763085097074509e-03 1.513329700000000000e+07
2.413752255961298943e-03 1.507289800000000000e+07
2.666742075234651566e-03 1.500405500000000000e+07
2.946248278021812439e-03 1.492585800000000000e+07
3.255049930885434151e-03 1.483735600000000000e+07
3.596217837184667587e-03 1.473756000000000000e+07
3.973144106566905975e-03 1.462545200000000000e+07
4.389577079564332962e-03 1.449997700000000000e+07
4.849656485021114349e-03 1.436003600000000000e+07
5.357958376407623291e-03 1.420450100000000000e+07
5.919535644352436066e-03 1.403220400000000000e+07
6.539973430335521698e-03 1.384217600000000000e+07
7.225440349429845810e-03 1.363263400000000000e+07
7.982752285897731781e-03 1.340252000000000000e+07
8.819439448416233063e-03 1.315033300000000000e+07
9.743820875883102417e-03 1.287506600000000000e+07
1.076508872210979462e-02 1.257533100000000000e+07
1.189339812844991684e-02 1.224966000000000000e+07
1.313996780663728714e-02 1.189679400000000000e+07
1.451719179749488831e-02 1.151553200000000000e+07
1.603876613080501556e-02 1.110488200000000000e+07
1.771981827914714813e-02 1.066424500000000000e+07
1.957706548273563385e-02 1.019363100000000000e+07
2.162897586822509766e-02 9.693999000000000000e+06
2.389594912528991699e-02 9.167655000000000000e+06
2.640052698552608490e-02 8.618740000000000000e+06
2.916761487722396851e-02 8.053715000000000000e+06
3.222472965717315674e-02 7.481713000000000000e+06
3.560226038098335266e-02 6.914527500000000000e+06
3.933380171656608582e-02 6.365940000000000000e+06
4.345645010471343994e-02 5.849050500000000000e+06
4.780209437012672424e-02 5.396629500000000000e+06
5.214774236083030701e-02 5.024694000000000000e+06
5.649338662624359131e-02 4.713424500000000000e+06
6.083903089165687561e-02 4.444682000000000000e+06
6.518467515707015991e-02 4.204127500000000000e+06
6.953032314777374268e-02 3.980794000000000000e+06
7.387596368789672852e-02 3.766723750000000000e+06
7.822161167860031128e-02 3.557864500000000000e+06
8.256725966930389404e-02 3.354674750000000000e+06
8.691290020942687988e-02 3.159070000000000000e+06
9.125854820013046265e-02 2.974835750000000000e+06
9.667774289846420288e-02 2.766378000000000000e+06
1.020969375967979431e-01 2.585922250000000000e+06
1.075161322951316833e-01 2.434986500000000000e+06
1.129353269934654236e-01 2.310851500000000000e+06
1.183545216917991638e-01 2.206881000000000000e+06
1.237737163901329041e-01 2.114869500000000000e+06
1.291929036378860474e-01 2.027753375000000000e+06
1.346120983362197876e-01 1.941001000000000000e+06
1.400312930345535278e-01 1.852802000000000000e+06
1.454504877328872681e-01 1.763717625000000000e+06
1.508696824312210083e-01 1.675937750000000000e+06
1.562888771295547485e-01 1.592350750000000000e+06
1.617080718278884888e-01 1.515779250000000000e+06
1.671272665262222290e-01 1.448311875000000000e+06
1.725464612245559692e-01 1.390553250000000000e+06
1.779656559228897095e-01 1.341272125000000000e+06
1.833848506212234497e-01 1.297975375000000000e+06
1.888040453195571899e-01 1.257988000000000000e+06
1.942232400178909302e-01 1.219149500000000000e+06
1.996424347162246704e-01 1.179979875000000000e+06
2.050616294145584106e-01 1.139794625000000000e+06
2.104808241128921509e-01 1.098856000000000000e+06
2.159000188112258911e-01 1.058206000000000000e+06
2.213192135095596313e-01 1.019132562500000000e+06
2.267384082078933716e-01 9.827306250000000000e+05
2.321576029062271118e-01 9.496983750000000000e+05
2.375767976045608521e-01 9.202538750000000000e+05
2.429959923028945923e-01 8.940656250000000000e+05
2.484151870012283325e-01 8.703424375000000000e+05
2.538343966007232666e-01 8.481173750000000000e+05
2.592535912990570068e-01 8.265332500000000000e+05
2.646727859973907471e-01 8.049908750000000000e+05
2.700919806957244873e-01 7.832081250000000000e+05
2.755111753940582275e-01 7.612448750000000000e+05
2.809303700923919678e-01 7.394431250000000000e+05
2.863495647907257080e-01 7.182668750000000000e+05
2.917687594890594482e-01 6.981378125000000000e+05
2.971879541873931885e-01 6.793457500000000000e+05
3.026071488857269287e-01 6.620128125000000000e+05
3.080263435840606689e-01 6.460690000000000000e+05
3.134455382823944092e-01 6.312606875000000000e+05
3.188647329807281494e-01 6.172337500000000000e+05
3.242839276790618896e-01 6.036532500000000000e+05
3.297031223773956299e-01 5.902836875000000000e+05
3.351223170757293701e-01 5.770052500000000000e+05
3.405415117740631104e-01 5.637993750000000000e+05
3.459607064723968506e-01 5.507358750000000000e+05
3.513799011707305908e-01 5.379536875000000000e+05
3.567990958690643311e-01 5.256196250000000000e+05
3.622182905673980713e-01 5.138704687500000000e+05
3.676374852657318115e-01 5.027690937500000000e+05
3.730566799640655518e-01 4.922947500000000000e+05
3.784758746623992920e-01 4.823642187500000000e+05
3.838950693607330322e-01 4.728650937500000000e+05
3.893142640590667725e-01 4.636841562500000000e+05
3.947334587574005127e-01 4.547253437500000000e+05
4.001526534557342529e-01 4.459227187500000000e+05
4.055718481540679932e-01 4.372473437500000000e+05
4.109910428524017334e-01 4.287067187500000000e+05
4.164102077484130859e-01 4.203376875000000000e+05
4.218294024467468262e-01 4.121936250000000000e+05
4.272485971450805664e-01 4.043263125000000000e+05
4.326677918434143066e-01 3.967667812500000000e+05
4.380869865417480469e-01 3.895162187500000000e+05
4.435061812400817871e-01 3.825507500000000000e+05
4.489253759384155273e-01 3.758336250000000000e+05
4.543445706367492676e-01 3.693251562500000000e+05
4.597637653350830078e-01 3.629879687500000000e+05
4.651829600334167480e-01 3.567924375000000000e+05
4.706021547317504883e-01 3.507199062500000000e+05
4.760213494300842285e-01 3.447632812500000000e+05
4.814405441284179688e-01 3.389258750000000000e+05
4.868597388267517090e-01 3.332203125000000000e+05
4.922789335250854492e-01 3.276650312500000000e+05
4.976981282234191895e-01 3.222749687500000000e+05
5.031173229217529297e-01 3.170535312500000000e+05
5.085365176200866699e-01 3.119922187500000000e+05
5.139557123184204102e-01 3.070775000000000000e+05
5.193749070167541504e-01 3.022962187500000000e+05
5.247941017150878906e-01 2.976366250000000000e+05
5.302132964134216309e-01 2.930869687500000000e+05
5.356324911117553711e-01 2.886357187500000000e+05
5.410516858100891113e-01 2.842744062500000000e+05
5.464708805084228516e-01 2.799997812500000000e+05
5.518900752067565918e-01 2.758144375000000000e+05
5.573092699050903320e-01 2.717243750000000000e+05
5.627284646034240723e-01 2.677341562500000000e+05
5.681476593017578125e-01 2.638442500000000000e+05
5.735668540000915527e-01 2.600511562500000000e+05
5.789860486984252930e-01 2.563501093750000000e+05
5.844052433967590332e-01 2.527369687500000000e+05
5.898244380950927734e-01 2.492078750000000000e+05
5.952436327934265137e-01 2.457581562500000000e+05
6.006628274917602539e-01 2.423818281250000000e+05
6.060820221900939941e-01 2.390732500000000000e+05
6.115012168884277344e-01 2.358290156250000000e+05
6.169204115867614746e-01 2.326489062500000000e+05
6.223396062850952148e-01 2.295342968750000000e+05
6.277588009834289551e-01 2.264862500000000000e+05
6.331779956817626953e-01 2.235039843750000000e+05
6.385971903800964355e-01 2.205852343750000000e+05
6.440163850784301758e-01 2.177277343750000000e+05
6.494355797767639160e-01 2.149299531250000000e+05
6.548547744750976562e-01 2.121909218750000000e+05
6.602739691734313965e-01 2.095089375000000000e+05
6.656931638717651367e-01 2.068809062500000000e+05
6.934303641319274902e-01 1.941867187500000000e+05
8.111869692802429199e-01 1.519172812500000000e+05
1.007680654525756836e+00 1.075954296875000000e+05
1.251771092414855957e+00 7.576727343750000000e+04
1.554987430572509766e+00 5.307739062500000000e+04
1.931651830673217773e+00 3.700882812500000000e+04
2.399555444717407227e+00 2.569543750000000000e+04
2.980799674987792969e+00 1.777201562500000000e+04
3.702838182449340820e+00 1.224891210937500000e+04
4.599776268005371094e+00 8.415360351562500000e+03
5.713979721069335938e+00 5.764787597656250000e+03
7.098075866699218750e+00 3.938524169921875000e+03
8.817441940307617188e+00 2.684225585937500000e+03
1.095328998565673828e+01 1.825255737304687500e+03
1.360650348663330078e+01 1.238574584960937500e+03
1.690240478515625000e+01 8.388442993164062500e+02
2.099667358398437500e+01 5.670997924804687500e+02
2.608269500732421875e+01 3.827433471679687500e+02
3.240070343017578125e+01 2.579107666015625000e+02
4.024911880493164062e+01 1.735320129394531250e+02
4.999866104125976562e+01 1.165905761718750000e+02
6.210982894897460938e+01 7.822283935546875000e+01
7.715468597412109375e+01 5.240666580200195312e+01
9.584384918212890625e+01 3.505872726440429688e+01
1.190600967407226562e+02 2.341558265686035156e+01
1.479000091552734375e+02 1.561032581329345703e+01
1.837258148193359375e+02 1.038383960723876953e+01
2.282296905517578125e+02 6.888311862945556641e+00
2.835137329101562500e+02 4.553819179534912109e+00
3.521892395019531250e+02 2.997912168502807617e+00
4.374999694824218750e+02 1.964389204978942871e+00
